"glass1 - Storage 113946"
"Wavelength nm."	"T%"
400.00	83.075829
401.00	83.088867
402.00	83.097549
403.00	83.093964
404.00	83.103882
405.00	83.114014
406.00	83.126038
407.00	83.134743
408.00	83.153481
409.00	83.169327
410.00	83.171585
411.00	83.182991
412.00	83.175674
413.00	83.171059
414.00	83.177635
415.00	83.199707
416.00	83.231003
417.00	83.232880
418.00	83.236160
419.00	83.247078
420.00	83.265541
421.00	83.287361
422.00	83.306389
423.00	83.313454
424.00	83.312042
425.00	83.312630
426.00	83.327736
427.00	83.347244
428.00	83.363930
429.00	83.374939
430.00	83.375854
431.00	83.375351
432.00	83.375343
433.00	83.385406
434.00	83.390121
435.00	83.402496
436.00	83.412781
437.00	83.422295
438.00	83.426132
439.00	83.435944
440.00	83.443359
441.00	83.444801
442.00	83.435120
443.00	83.442154
444.00	83.451523
445.00	83.467094
446.00	83.473610
447.00	83.484146
448.00	83.502678
449.00	83.520195
450.00	83.538040
451.00	83.535629
452.00	83.543388
453.00	83.536232
454.00	83.545891
455.00	83.539658
456.00	83.543983
457.00	83.561714
458.00	83.579422
459.00	83.596878
460.00	83.590576
461.00	83.594116
462.00	83.604904
463.00	83.615959
464.00	83.622414
465.00	83.621895
466.00	83.621979
467.00	83.615562
468.00	83.620216
469.00	83.629288
470.00	83.637413
471.00	83.642479
472.00	83.654518
473.00	83.670174
474.00	83.661964
475.00	83.650116
476.00	83.650360
477.00	83.672028
478.00	83.679565
479.00	83.683090
480.00	83.682594
481.00	83.701538
482.00	83.723244
483.00	83.740227
484.00	83.744614
485.00	83.732620
486.00	83.734634
487.00	83.740524
488.00	83.765976
489.00	83.771225
490.00	83.789314
491.00	83.789238
492.00	83.795631
493.00	83.790932
494.00	83.792999
495.00	83.800926
496.00	83.808792
497.00	83.819031
498.00	83.822624
499.00	83.835617
500.00	83.839157
501.00	83.848938
502.00	83.845909
503.00	83.843109
504.00	83.849449
505.00	83.865685
506.00	83.887733
507.00	83.886780
508.00	83.880737
509.00	83.887718
510.00	83.909492
511.00	83.921745
512.00	83.921799
513.00	83.917480
514.00	83.927185
515.00	83.934219
516.00	83.937927
517.00	83.934608
518.00	83.939438
519.00	83.942802
520.00	83.948906
521.00	83.952812
522.00	83.957718
523.00	83.963547
524.00	83.981339
525.00	83.992020
526.00	83.990662
527.00	83.973274
528.00	83.969604
529.00	83.982346
530.00	83.993790
531.00	84.003456
532.00	84.002457
533.00	84.003845
534.00	84.012543
535.00	84.013351
536.00	84.016380
537.00	84.011253
538.00	84.010841
539.00	84.011246
540.00	84.018608
541.00	84.027573
542.00	84.036484
543.00	84.034149
544.00	84.039619
545.00	84.035316
546.00	84.045776
547.00	84.048576
548.00	84.049400
549.00	84.046135
550.00	84.039650
551.00	84.054726
552.00	84.057335
553.00	84.062668
554.00	84.056107
555.00	84.073196
556.00	84.082275
557.00	84.093544
558.00	84.086922
559.00	84.083992
560.00	84.090393
561.00	84.097305
562.00	84.108475
563.00	84.112022
564.00	84.111977
565.00	84.116844
566.00	84.124771
567.00	84.129890
568.00	84.138893
569.00	84.139000
570.00	84.145866
571.00	84.145279
572.00	84.137199
573.00	84.132271
574.00	84.135162
575.00	84.150986
576.00	84.152176
577.00	84.146309
578.00	84.135262
579.00	84.139046
580.00	84.140396
581.00	84.143776
582.00	84.138977
583.00	84.138550
584.00	84.148941
585.00	84.144882
586.00	84.144142
587.00	84.135635
588.00	84.159332
589.00	84.179184
590.00	84.187157
591.00	84.188118
592.00	84.184959
593.00	84.190498
594.00	84.193291
595.00	84.198425
596.00	84.205841
597.00	84.208328
598.00	84.221382
599.00	84.219055
600.00	84.226151
601.00	84.221664
602.00	84.225616
603.00	84.239105
604.00	84.246017
605.00	84.257553
606.00	84.256775
607.00	84.262482
608.00	84.261742
609.00	84.259918
610.00	84.254578
611.00	84.259651
612.00	84.262405
613.00	84.269936
614.00	84.267632
615.00	84.267632
616.00	84.270859
617.00	84.273811
618.00	84.279137
619.00	84.269073
620.00	84.278038
621.00	84.281921
622.00	84.299164
623.00	84.302116
624.00	84.294350
625.00	84.291183
626.00	84.286621
627.00	84.299049
628.00	84.305153
629.00	84.306923
630.00	84.305649
631.00	84.311234
632.00	84.311729
633.00	84.309784
634.00	84.297646
635.00	84.299461
636.00	84.307335
637.00	84.316429
638.00	84.333839
639.00	84.346741
640.00	84.362564
641.00	84.355301
642.00	84.351723
643.00	84.331039
644.00	84.334305
645.00	84.341080
646.00	84.362305
647.00	84.363426
648.00	84.355942
649.00	84.357231
650.00	84.366776
651.00	84.377205
652.00	84.364685
653.00	84.371681
654.00	84.372589
655.00	84.388504
656.00	84.383041
657.00	84.390968
658.00	84.394318
659.00	84.395233
660.00	84.382874
661.00	84.369530
662.00	84.359566
663.00	84.360634
664.00	84.370201
665.00	84.367020
666.00	84.354797
667.00	84.350243
668.00	84.363594
669.00	84.389732
670.00	84.386688
671.00	84.385597
672.00	84.387314
673.00	84.403168
674.00	84.415749
675.00	84.409126
676.00	84.399918
677.00	84.387787
678.00	84.374512
679.00	84.369370
680.00	84.370789
681.00	84.378441
682.00	84.387192
683.00	84.386406
684.00	84.394913
685.00	84.391777
686.00	84.397568
687.00	84.388550
688.00	84.395493
689.00	84.390320
690.00	84.406158
691.00	84.405693
692.00	84.416695
693.00	84.404144
694.00	84.403458
695.00	84.394363
696.00	84.394524
697.00	84.404297
698.00	84.414825
699.00	84.429527
700.00	84.436066
701.00	84.441650
702.00	84.439568
703.00	84.430923
704.00	84.408775
705.00	84.389740
706.00	84.384003
707.00	84.401283
708.00	84.409653
709.00	84.417511
710.00	84.412575
711.00	84.421883
712.00	84.415634
713.00	84.409088
714.00	84.400345
715.00	84.401283
716.00	84.418999
717.00	84.424141
718.00	84.429688
719.00	84.428238
720.00	84.445068
721.00	84.448540
722.00	84.433571
723.00	84.432976
724.00	84.428154
725.00	84.436256
726.00	84.425903
727.00	84.440414
728.00	84.448547
729.00	84.440208
730.00	84.419815
731.00	84.409790
732.00	84.419670
733.00	84.418617
734.00	84.421097
735.00	84.414413
736.00	84.427170
737.00	84.428345
738.00	84.431351
739.00	84.436974
740.00	84.434906
741.00	84.423164
742.00	84.416786
743.00	84.426231
744.00	84.437996
745.00	84.435745
746.00	84.422264
747.00	84.419456
748.00	84.418816
749.00	84.430801
750.00	84.433144
751.00	84.427109
752.00	84.414627
753.00	84.415802
754.00	84.415977
755.00	84.432068
756.00	84.430214
757.00	84.433472
758.00	84.427750
759.00	84.431572
760.00	84.445641
761.00	84.437576
762.00	84.451393
763.00	84.453949
764.00	84.467773
765.00	84.451065
766.00	84.450310
767.00	84.465698
768.00	84.483398
769.00	84.486702
770.00	84.484085
771.00	84.482056
772.00	84.463242
773.00	84.459785
774.00	84.463455
775.00	84.469398
776.00	84.445892
777.00	84.432968
778.00	84.420280
779.00	84.404800
780.00	84.397545
781.00	84.403061
782.00	84.410461
783.00	84.403160
784.00	84.408554
785.00	84.400185
786.00	84.402283
787.00	84.402237
788.00	84.412178
789.00	84.400642
790.00	84.405205
791.00	84.407509
792.00	84.408447
793.00	84.391029
794.00	84.403648
795.00	84.412430
796.00	84.390884
797.00	84.385368
798.00	84.380569
799.00	84.400757
800.00	84.187759
801.00	83.995819
802.00	83.787224
803.00	83.788200
804.00	83.771927
805.00	83.778618
806.00	83.769684
807.00	83.773247
808.00	83.763138
809.00	83.771248
810.00	83.774910
811.00	83.782150
812.00	83.785233
813.00	83.764824
814.00	83.752884
815.00	83.740936
816.00	83.749931
817.00	83.747887
818.00	83.753571
819.00	83.765945
820.00	83.772331
821.00	83.768166
822.00	83.762810
823.00	83.759644
824.00	83.749344
825.00	83.749405
826.00	83.741928
827.00	83.742119
828.00	83.733124
829.00	83.726494
830.00	84.020523
831.00	84.272606
832.00	84.576820
833.00	84.579506
834.00	84.585602
835.00	84.581581
836.00	84.586006
837.00	84.577721
838.00	84.583214
839.00	84.583542
840.00	84.583611
841.00	84.588501
842.00	84.579041
843.00	84.588692
844.00	84.582970
845.00	84.588913
846.00	84.591553
847.00	84.586830
848.00	84.595535
849.00	84.593765
850.00	84.599213
851.00	84.602318
852.00	84.594994
853.00	84.605721
854.00	84.598473
855.00	84.606865
856.00	84.616295
857.00	84.607506
858.00	84.617393
859.00	84.601784
860.00	84.614952
861.00	84.620125
862.00	84.616417
863.00	84.631874
864.00	84.613708
865.00	84.629326
866.00	84.610626
867.00	84.620323
868.00	84.625488
869.00	84.624046
870.00	84.640274
871.00	84.621979
872.00	84.642288
873.00	84.621498
874.00	84.645264
875.00	84.621140
876.00	84.642670
877.00	84.613487
878.00	84.637039
879.00	84.617706
880.00	84.633484
881.00	84.618378
882.00	84.621979
883.00	84.626991
884.00	84.630539
885.00	84.642967
886.00	84.626099
887.00	84.647552
888.00	84.624359
889.00	84.655853
890.00	84.626434
891.00	84.650856
892.00	84.633606
893.00	84.649971
894.00	84.640511
895.00	84.641960
896.00	84.649376
897.00	84.641678
898.00	84.664383
899.00	84.643677
900.00	84.642212
