"glass - Storage 113447"
"Wavelength nm."	"T%"
400.00	83.212708
401.00	83.230095
402.00	83.236069
403.00	83.248665
404.00	83.240944
405.00	83.252602
406.00	83.250443
407.00	83.259056
408.00	83.271782
409.00	83.288750
410.00	83.312431
411.00	83.319923
412.00	83.320786
413.00	83.309433
414.00	83.317474
415.00	83.336601
416.00	83.371185
417.00	83.379387
418.00	83.376984
419.00	83.377579
420.00	83.394562
421.00	83.417267
422.00	83.423676
423.00	83.422600
424.00	83.421242
425.00	83.433258
426.00	83.452530
427.00	83.480255
428.00	83.490784
429.00	83.502548
430.00	83.499840
431.00	83.503082
432.00	83.501541
433.00	83.500969
434.00	83.504623
435.00	83.514458
436.00	83.537437
437.00	83.545700
438.00	83.551826
439.00	83.550247
440.00	83.555756
441.00	83.564041
442.00	83.568230
443.00	83.587593
444.00	83.599129
445.00	83.610138
446.00	83.604362
447.00	83.604660
448.00	83.616997
449.00	83.637741
450.00	83.653397
451.00	83.667061
452.00	83.679878
453.00	83.679665
454.00	83.677101
455.00	83.671974
456.00	83.681831
457.00	83.687416
458.00	83.700851
459.00	83.712044
460.00	83.715607
461.00	83.708588
462.00	83.717171
463.00	83.725212
464.00	83.732895
465.00	83.736458
466.00	83.742966
467.00	83.748672
468.00	83.747200
469.00	83.753006
470.00	83.757774
471.00	83.761078
472.00	83.763412
473.00	83.777260
474.00	83.777466
475.00	83.777641
476.00	83.784561
477.00	83.811752
478.00	83.823151
479.00	83.818680
480.00	83.805855
481.00	83.814491
482.00	83.833336
483.00	83.846542
484.00	83.853409
485.00	83.849541
486.00	83.853706
487.00	83.858284
488.00	83.875626
489.00	83.887405
490.00	83.900345
491.00	83.902740
492.00	83.903748
493.00	83.905693
494.00	83.903328
495.00	83.916939
496.00	83.915047
497.00	83.920845
498.00	83.921989
499.00	83.947601
500.00	83.955315
501.00	83.964371
502.00	83.954407
503.00	83.961418
504.00	83.961365
505.00	83.969559
506.00	83.983681
507.00	83.984772
508.00	83.987335
509.00	83.990791
510.00	84.005791
511.00	84.018066
512.00	84.018402
513.00	84.015854
514.00	84.019226
515.00	84.031090
516.00	84.032928
517.00	84.037453
518.00	84.038994
519.00	84.045830
520.00	84.042259
521.00	84.047905
522.00	84.056648
523.00	84.061195
524.00	84.067604
525.00	84.072021
526.00	84.083710
527.00	84.074142
528.00	84.081192
529.00	84.083023
530.00	84.094559
531.00	84.092201
532.00	84.085381
533.00	84.087616
534.00	84.093788
535.00	84.108139
536.00	84.106674
537.00	84.101860
538.00	84.102745
539.00	84.103157
540.00	84.115486
541.00	84.109406
542.00	84.113342
543.00	84.106720
544.00	84.114601
545.00	84.117607
546.00	84.129021
547.00	84.131149
548.00	84.130089
549.00	84.125618
550.00	84.127831
551.00	84.136902
552.00	84.136230
553.00	84.133469
554.00	84.135323
555.00	84.149216
556.00	84.159325
557.00	84.163422
558.00	84.154495
559.00	84.153824
560.00	84.167084
561.00	84.180695
562.00	84.181793
563.00	84.179375
564.00	84.178329
565.00	84.186646
566.00	84.189072
567.00	84.185341
568.00	84.189583
569.00	84.188416
570.00	84.196892
571.00	84.203758
572.00	84.198952
573.00	84.196190
574.00	84.190666
575.00	84.203308
576.00	84.201088
577.00	84.199043
578.00	84.194832
579.00	84.200485
580.00	84.204208
581.00	84.201042
582.00	84.202568
583.00	84.202141
584.00	84.210869
585.00	84.211807
586.00	84.214363
587.00	84.215088
588.00	84.226997
589.00	84.241768
590.00	84.243286
591.00	84.247604
592.00	84.246895
593.00	84.253151
594.00	84.250854
595.00	84.258217
596.00	84.263603
597.00	84.268860
598.00	84.272697
599.00	84.272972
600.00	84.284416
601.00	84.281975
602.00	84.286400
603.00	84.296944
604.00	84.299072
605.00	84.306709
606.00	84.308533
607.00	84.317688
608.00	84.308601
609.00	84.305702
610.00	84.307114
611.00	84.320831
612.00	84.310982
613.00	84.314781
614.00	84.319916
615.00	84.329185
616.00	84.327034
617.00	84.326378
618.00	84.333603
619.00	84.333572
620.00	84.338089
621.00	84.340927
622.00	84.349754
623.00	84.343559
624.00	84.335884
625.00	84.331940
626.00	84.334671
627.00	84.339394
628.00	84.352417
629.00	84.361984
630.00	84.360352
631.00	84.355690
632.00	84.351021
633.00	84.350845
634.00	84.350670
635.00	84.356216
636.00	84.372650
637.00	84.377113
638.00	84.388824
639.00	84.404251
640.00	84.415100
641.00	84.410484
642.00	84.397301
643.00	84.384956
644.00	84.390617
645.00	84.394569
646.00	84.406677
647.00	84.411514
648.00	84.415306
649.00	84.415939
650.00	84.421295
651.00	84.424500
652.00	84.416245
653.00	84.424088
654.00	84.423164
655.00	84.443756
656.00	84.432503
657.00	84.453514
658.00	84.458008
659.00	84.461365
660.00	84.443130
661.00	84.439880
662.00	84.436623
663.00	84.435997
664.00	84.428749
665.00	84.418198
666.00	84.410355
667.00	84.418510
668.00	84.430420
669.00	84.453323
670.00	84.444092
671.00	84.450539
672.00	84.445572
673.00	84.458588
674.00	84.459938
675.00	84.456924
676.00	84.450951
677.00	84.452606
678.00	84.443390
679.00	84.442047
680.00	84.433105
681.00	84.443466
682.00	84.445938
683.00	84.458900
684.00	84.462959
685.00	84.461601
686.00	84.450951
687.00	84.453697
688.00	84.463814
689.00	84.474983
690.00	84.477791
691.00	84.484123
692.00	84.489296
693.00	84.486183
694.00	84.475899
695.00	84.459435
696.00	84.456314
697.00	84.467644
698.00	84.493790
699.00	84.513519
700.00	84.529778
701.00	84.526917
702.00	84.524918
703.00	84.515358
704.00	84.490318
705.00	84.475113
706.00	84.471092
707.00	84.501099
708.00	84.506004
709.00	84.509140
710.00	84.508522
711.00	84.510300
712.00	84.503975
713.00	84.491852
714.00	84.495201
715.00	84.503357
716.00	84.510353
717.00	84.508621
718.00	84.495110
719.00	84.511223
720.00	84.525414
721.00	84.547218
722.00	84.528419
723.00	84.535889
724.00	84.529877
725.00	84.539864
726.00	84.529297
727.00	84.533852
728.00	84.538834
729.00	84.531364
730.00	84.515778
731.00	84.499863
732.00	84.503433
733.00	84.506981
734.00	84.519508
735.00	84.515884
736.00	84.515854
737.00	84.520660
738.00	84.524940
739.00	84.537270
740.00	84.538773
741.00	84.525352
742.00	84.525299
743.00	84.527191
744.00	84.543266
745.00	84.546982
746.00	84.531670
747.00	84.536003
748.00	84.535248
749.00	84.556160
750.00	84.537643
751.00	84.533272
752.00	84.512070
753.00	84.530891
754.00	84.518585
755.00	84.543488
756.00	84.540726
757.00	84.554947
758.00	84.547928
759.00	84.544601
760.00	84.557930
761.00	84.546333
762.00	84.555779
763.00	84.557808
764.00	84.570190
765.00	84.563118
766.00	84.573639
767.00	84.583939
768.00	84.589661
769.00	84.570084
770.00	84.580772
771.00	84.588112
772.00	84.573090
773.00	84.561844
774.00	84.573235
775.00	84.574623
776.00	84.559082
777.00	84.545067
778.00	84.550301
779.00	84.519730
780.00	84.515877
781.00	84.519714
782.00	84.537247
783.00	84.518562
784.00	84.521980
785.00	84.513962
786.00	84.514984
787.00	84.502853
788.00	84.514709
789.00	84.496696
790.00	84.504402
791.00	84.500656
792.00	84.508835
793.00	84.496254
794.00	84.511734
795.00	84.513893
796.00	84.518776
797.00	84.502403
798.00	84.514893
799.00	84.505859
800.00	84.382622
801.00	84.259071
802.00	84.143051
803.00	84.154503
804.00	84.160522
805.00	84.160912
806.00	84.152412
807.00	84.147453
808.00	84.142097
809.00	84.136932
810.00	84.132103
811.00	84.141716
812.00	84.143776
813.00	84.132065
814.00	84.112640
815.00	84.111473
816.00	84.115028
817.00	84.128899
818.00	84.126526
819.00	84.139923
820.00	84.131393
821.00	84.142914
822.00	84.141083
823.00	84.143082
824.00	84.127808
825.00	84.136978
826.00	84.121429
827.00	84.122826
828.00	84.106415
829.00	84.109901
830.00	84.295708
831.00	84.448288
832.00	84.649040
833.00	84.656212
834.00	84.662750
835.00	84.660500
836.00	84.664841
837.00	84.661034
838.00	84.668365
839.00	84.669189
840.00	84.665413
841.00	84.668961
842.00	84.655182
843.00	84.660912
844.00	84.655716
845.00	84.662773
846.00	84.669456
847.00	84.662056
848.00	84.669098
849.00	84.667610
850.00	84.672234
851.00	84.676689
852.00	84.670876
853.00	84.680183
854.00	84.675713
855.00	84.677307
856.00	84.684349
857.00	84.673141
858.00	84.684830
859.00	84.673149
860.00	84.684776
861.00	84.692688
862.00	84.684105
863.00	84.702827
864.00	84.680992
865.00	84.698654
866.00	84.680717
867.00	84.690971
868.00	84.696350
869.00	84.691956
870.00	84.709030
871.00	84.694748
872.00	84.717361
873.00	84.692451
874.00	84.717323
875.00	84.687859
876.00	84.710846
877.00	84.682243
878.00	84.703781
879.00	84.686279
880.00	84.695961
881.00	84.683044
882.00	84.690025
883.00	84.697708
884.00	84.695816
885.00	84.709839
886.00	84.688545
887.00	84.717010
888.00	84.687111
889.00	84.716347
890.00	84.690384
891.00	84.712578
892.00	84.698280
893.00	84.710236
894.00	84.709946
895.00	84.707787
896.00	84.716484
897.00	84.698242
898.00	84.723953
899.00	84.698555
900.00	84.697533
